Time, Position, Velocity, Iq, Uq, Vsupply
-0.0, 341.67554, 50.5191, 0.09961, 1.0, 0.49225
0.001, 341.72675, 50.72363, 0.05078, 1.0, 0.49219
0.002, 341.7767, 51.03043, 0.02832, 1.0, 0.49225
0.003, 341.82852, 51.03043, 0.07422, 1.0, 0.49225
0.004, 341.88162, 50.77476, 0.0498, 1.0, 0.49225
0.005, 341.93158, 50.5191, 0.07617, 1.0, 0.49225
0.006, 341.9834, 50.31457, 0.12891, 1.0, 0.49225
0.007, 342.03369, 50.26344, 0.13965, 1.0, 0.49225
0.008, 342.08047, 50.3657, 0.12793, 1.0, 0.49225
0.009, 342.13013, 50.57023, 0.11133, 1.0, 0.49231
0.01, 342.18195, 50.6725, 0.13672, 1.0, 0.49225
0.011, 342.23285, 50.6725, 0.06836, 1.0, 0.49225
0.012, 342.2847, 50.72363, 0.04297, 1.0, 0.49225
0.013, 342.33432, 50.72363, 0.06152, 1.0, 0.49219
0.014, 342.38522, 50.72363, 0.03809, 1.0, 0.49219
0.015, 342.43454, 50.72363, 0.07031, 1.0, 0.49213
0.016, 342.48669, 50.8259, 0.10059, 1.0, 0.49219
0.017, 342.53665, 50.62137, 0.16113, 1.0, 0.49225
0.018, 342.58847, 50.3657, 0.13867, 1.0, 0.49225
0.019, 342.66043, 50.26344, 0.11523, 1.0, 0.49225
0.0203, 342.73016, 50.5191, 0.09473, 1.0, 0.49225
0.0211, 342.77982, 50.77476, 0.05469, 1.0, 0.49219
0.022, 342.80148, 50.8259, 0.04297, 1.0, 0.49225
0.023, 342.85519, 51.03043, 0.06348, 1.0, 0.49219
0.024, 342.90829, 50.77476, 0.04785, 1.0, 0.49219
0.0254, 342.97397, 50.8259, 0.07617, 1.0, 0.49219
0.026, 343.0217, 50.41684, 0.10938, 1.0, 0.49219
0.027, 343.04431, 50.46797, 0.15137, 1.0, 0.49219
0.028, 343.09616, 50.41684, 0.12109, 1.0, 0.49219
0.029, 343.14832, 50.5191, 0.11816, 1.0, 0.49225
0.03, 343.19669, 50.77476, 0.11914, 1.0, 0.49225
0.031, 343.24884, 50.72363, 0.10938, 1.0, 0.49219
0.032, 343.30319, 50.72363, 0.05859, 1.0, 0.49225
0.033, 343.34781, 50.72363, 0.03027, 1.0, 0.49225
0.034, 343.39963, 50.72363, 0.06348, 1.0, 0.49219
0.035, 343.44958, 50.92816, 0.04004, 1.0, 0.49225
0.036, 343.50018, 50.87703, 0.06348, 1.0, 0.49225
0.037, 343.55075, 50.77476, 0.11523, 1.0, 0.49219
0.038, 343.6048, 50.46797, 0.13281, 1.0, 0.49219
0.039, 343.65381, 50.2123, 0.14258, 1.0, 0.49225
0.04, 343.70312, 50.3657, 0.11035, 1.0, 0.49219
0.041, 343.75653, 50.5191, 0.13379, 1.0, 0.49225
0.042, 343.80395, 50.72363, 0.06445, 1.0, 0.49219
0.043, 343.85611, 50.92816, 0.04004, 1.0, 0.49219
0.044, 343.90701, 50.97929, 0.06543, 1.0, 0.49225
0.045, 343.95663, 50.92816, 0.04688, 1.0, 0.49219
0.046, 344.0069, 50.6725, 0.06836, 1.0, 0.49225
0.047, 344.0575, 50.57023, 0.10156, 1.0, 0.49219
0.048, 344.10651, 50.46797, 0.15332, 1.0, 0.49219
0.049, 344.15991, 50.41684, 0.13477, 1.0, 0.49225
0.05, 344.20953, 50.62137, 0.1084, 1.0, 0.49225
0.051, 344.26138, 50.92816, 0.14258, 1.0, 0.49225
0.052, 344.33017, 50.77476, 0.05859, 1.0, 0.49225
0.0534, 344.40244, 50.77476, 0.03809, 1.0, 0.49219
0.0541, 344.45584, 50.6725, 0.06543, 1.0, 0.49219
0.055, 344.47501, 50.72363, 0.04883, 1.0, 0.49225
0.056, 344.5325, 51.03043, 0.07617, 1.0, 0.49219
0.057, 344.57928, 50.77476, 0.09375, 1.0, 0.49225
0.0584, 344.64432, 50.62137, 0.14648, 1.0, 0.49219
0.059, 344.69742, 50.3657, 0.13086, 1.0, 0.49225
0.06, 344.71783, 50.31457, 0.12402, 1.0, 0.49219
0.061, 344.77469, 50.5191, 0.12305, 1.0, 0.49225
0.062, 344.82056, 50.77476, 0.09375, 1.0, 0.49219
0.063, 344.8743, 50.97929, 0.0498, 1.0, 0.49219
0.064, 344.9296, 50.97929, 0.03711, 1.0, 0.49219
0.065, 344.97638, 51.03043, 0.08105, 1.0, 0.49225
0.066, 345.02982, 50.87703, 0.06445, 1.0, 0.49225
0.067, 345.07504, 50.6725, 0.07617, 1.0, 0.49219
0.068, 345.12436, 50.57023, 0.13086, 1.0, 0.49225
0.069, 345.17212, 50.46797, 0.13184, 1.0, 0.49225
0.07, 345.22458, 50.5191, 0.12891, 1.0, 0.49219
0.071, 345.27798, 50.87703, 0.11133, 1.0, 0.49219
0.072, 345.32764, 50.97929, 0.14062, 1.0, 0.49219
0.073, 345.37726, 50.92816, 0.07129, 1.0, 0.49219
0.074, 345.42816, 50.87703, 0.03223, 1.0, 0.49225
0.075, 345.47778, 50.87703, 0.0625, 1.0, 0.49219
0.076, 345.53058, 50.97929, 0.04004, 1.0, 0.49219
0.077, 345.57989, 51.13269, 0.07812, 1.0, 0.49219
0.078, 345.63235, 51.08156, 0.10156, 1.0, 0.49225
0.079, 345.68262, 50.72363, 0.15332, 1.0, 0.49219
0.08, 345.73193, 50.46797, 0.12305, 1.0, 0.49225
0.081, 345.78378, 50.5191, 0.10645, 1.0, 0.49219
0.082, 345.83343, 50.62137, 0.14258, 1.0, 0.49219
0.083, 345.88495, 50.87703, 0.06543, 1.0, 0.49225
0.084, 345.93741, 51.08156, 0.04004, 1.0, 0.49219
0.085, 345.98862, 51.28609, 0.03906, 1.0, 0.49225
0.0863, 346.07123, 50.8259, 0.05469, 1.0, 0.49225
0.0872, 346.12402, 50.8259, 0.0791, 1.0, 0.49219
0.088, 346.16202, 50.6725, 0.1084, 1.0, 0.49219
0.089, 346.21231, 50.41684, 0.13965, 1.0, 0.49219
0.0903, 346.27325, 50.46797, 0.13672, 1.0, 0.49225
0.091, 346.31784, 50.72363, 0.10547, 1.0, 0.49219
0.0921, 346.37378, 50.8259, 0.13867, 1.0, 0.49219
0.093, 346.42215, 50.6725, 0.05957, 1.0, 0.49219
0.094, 346.45264, 50.87703, 0.05273, 1.0, 0.49219
0.095, 346.49976, 50.8259, 0.04297, 1.0, 0.49219
0.096, 346.55157, 50.77476, 0.06738, 1.0, 0.49225
0.097, 346.59903, 50.8259, 0.04492, 1.0, 0.49219
0.098, 346.65338, 50.87703, 0.06934, 1.0, 0.49225
0.099, 346.7002, 50.77476, 0.13574, 1.0, 0.49219
0.1, 346.75171, 50.5191, 0.13184, 1.0, 0.49219
0.101, 346.80072, 50.31457, 0.1377, 1.0, 0.49219
0.102, 346.85034, 50.3657, 0.1123, 1.0, 0.49225
0.103, 346.90219, 50.5191, 0.12793, 1.0, 0.49225
0.104, 346.95465, 50.77476, 0.0459, 1.0, 0.49219
0.105, 347.00681, 50.92816, 0.03223, 1.0, 0.49219
0.106, 347.06146, 51.03043, 0.07129, 1.0, 0.49219
0.107, 347.10608, 50.92816, 0.05371, 1.0, 0.49225
0.108, 347.15479, 50.6725, 0.0752, 1.0, 0.49219
0.109, 347.2038, 50.46797, 0.10547, 1.0, 0.49225
0.11, 347.25531, 50.2123, 0.15723, 1.0, 0.49219
0.111, 347.30841, 50.2123, 0.13184, 1.0, 0.49219
0.112, 347.35803, 50.46797, 0.10156, 1.0, 0.49219
0.113, 347.40735, 50.62137, 0.14746, 1.0, 0.49219
0.114, 347.45825, 50.77476, 0.07324, 1.0, 0.49219
0.115, 347.50977, 50.62137, 0.05078, 1.0, 0.49219
0.116, 347.56067, 50.57023, 0.05469, 1.0, 0.49219
0.117, 347.61252, 50.6725, 0.05176, 1.0, 0.49219
0.118, 347.65964, 50.6725, 0.06543, 1.0, 0.49219
0.119, 347.72812, 50.6725, 0.0957, 1.0, 0.49219
0.1204, 347.80194, 50.46797, 0.13672, 1.0, 0.49219
0.1211, 347.85474, 50.16117, 0.13379, 1.0, 0.49219
0.122, 347.87765, 50.16117, 0.11133, 1.0, 0.49213
0.123, 347.92822, 50.57023, 0.15332, 1.0, 0.49219
0.1242, 347.98825, 50.62137, 0.06348, 1.0, 0.49213
0.1255, 348.05484, 51.03043, 0.03125, 1.0, 0.49213
0.126, 348.10669, 51.08156, 0.07324, 1.0, 0.49219
0.127, 348.11957, 51.03043, 0.06738, 1.0, 0.49219
0.128, 348.17139, 50.77476, 0.05078, 1.0, 0.49219
0.1291, 348.2204, 50.5191, 0.07031, 1.0, 0.49213
0.13, 348.30209, 50.26344, 0.14941, 1.0, 0.49213
0.131, 348.31842, 50.26344, 0.12598, 1.0, 0.49219
0.132, 348.37308, 50.3657, 0.1377, 1.0, 0.49213
0.133, 348.42148, 50.62137, 0.11523, 1.0, 0.49219
0.134, 348.47079, 50.77476, 0.12988, 1.0, 0.49213
0.135, 348.52167, 50.8259, 0.05859, 1.0, 0.49213
0.136, 348.57352, 50.62137, 0.03906, 1.0, 0.49213
0.137, 348.62283, 50.57023, 0.0625, 1.0, 0.49213
0.138, 348.67624, 50.77476, 0.03809, 1.0, 0.49213
0.139, 348.72559, 50.72363, 0.06543, 1.0, 0.49213
0.14, 348.77615, 50.72363, 0.10449, 1.0, 0.49213
0.141, 348.82516, 50.62137, 0.15137, 1.0, 0.49219
0.142, 348.87448, 50.3657, 0.13281, 1.0, 0.49219
0.143, 348.92599, 50.26344, 0.11328, 1.0, 0.49213
0.144, 348.97659, 50.3657, 0.14062, 1.0, 0.49219
0.145, 349.02875, 50.62137, 0.06738, 1.0, 0.49213
0.146, 349.07837, 50.77476, 0.0459, 1.0, 0.49219
0.147, 349.12958, 50.92816, 0.0459, 1.0, 0.49219
0.148, 349.17889, 50.92816, 0.06152, 1.0, 0.49213
0.149, 349.23074, 50.6725, 0.07812, 1.0, 0.49219
0.15, 349.28101, 50.46797, 0.08887, 1.0, 0.49225
0.151, 349.33252, 50.31457, 0.16895, 1.0, 0.49219
0.152, 349.39819, 50.41684, 0.12891, 1.0, 0.49219
0.1532, 349.46698, 50.5191, 0.11914, 1.0, 0.49219
0.154, 349.51505, 50.97929, 0.13965, 1.0, 0.49219
0.155, 349.54175, 50.6725, 0.09375, 1.0, 0.49219
0.156, 349.59863, 50.6725, 0.04883, 1.0, 0.49219
0.157, 349.65704, 50.62137, 0.05176, 1.0, 0.49219
0.1582, 349.71454, 50.77476, 0.04102, 1.0, 0.49219
0.159, 349.76889, 50.8259, 0.07422, 1.0, 0.49219
0.16, 349.78775, 50.77476, 0.07422, 1.0, 0.49219
0.161, 349.84305, 50.62137, 0.14844, 1.0, 0.49219
0.162, 349.89203, 50.31457, 0.13477, 1.0, 0.49219
0.163, 349.94232, 50.26344, 0.14355, 1.0, 0.49213
0.164, 349.99069, 50.46797, 0.11621, 1.0, 0.49213
0.165, 350.04001, 50.5191, 0.13184, 1.0, 0.49219
0.166, 350.09247, 50.77476, 0.05957, 1.0, 0.49219
0.167, 350.14368, 50.92816, 0.01855, 1.0, 0.49219
0.168, 350.19333, 50.97929, 0.06152, 1.0, 0.49219
0.169, 350.24295, 51.03043, 0.03711, 1.0, 0.49219
0.17, 350.29449, 50.72363, 0.0752, 1.0, 0.49219
0.171, 350.34756, 50.46797, 0.1084, 1.0, 0.49219
0.172, 350.39658, 50.41684, 0.14551, 1.0, 0.49219
0.173, 350.44748, 50.5191, 0.12988, 1.0, 0.49219
0.174, 350.4971, 50.6725, 0.10449, 1.0, 0.49225
0.175, 350.548, 50.77476, 0.15234, 1.0, 0.49219
0.176, 350.59766, 50.97929, 0.0791, 1.0, 0.49225
0.177, 350.64947, 50.77476, 0.04785, 1.0, 0.49219
0.178, 350.69946, 50.72363, 0.05078, 1.0, 0.49219
0.179, 350.75159, 50.8259, 0.04688, 1.0, 0.49213
0.18, 350.80124, 50.92816, 0.05762, 1.0, 0.49213
0.181, 350.85339, 51.03043, 0.08301, 1.0, 0.49219
0.182, 350.90366, 50.72363, 0.16504, 1.0, 0.49213
0.183, 350.95676, 50.46797, 0.12988, 1.0, 0.49219
0.184, 351.00482, 50.41684, 0.12305, 1.0, 0.49219
0.1851, 351.07834, 50.6725, 0.13965, 1.0, 0.49225
0.1865, 351.1553, 50.92816, 0.05371, 1.0, 0.49225
0.1876, 351.21686, 51.13269, 0.03906, 1.0, 0.49219
0.1881, 351.25113, 51.13269, 0.07031, 1.0, 0.49213
0.189, 351.27405, 51.18383, 0.05176, 1.0, 0.49219
0.19, 351.33844, 50.97929, 0.07324, 1.0, 0.49219
0.1913, 351.39404, 50.46797, 0.10352, 1.0, 0.49219
0.1924, 351.45877, 50.62137, 0.13574, 1.0, 0.49219
0.193, 351.48517, 50.41684, 0.12598, 1.0, 0.49219
0.194, 351.51562, 50.57023, 0.1377, 1.0, 0.49219
0.195, 351.57346, 50.92816, 0.12402, 1.0, 0.49219
0.196, 351.62024, 50.97929, 0.11426, 1.0, 0.49219
0.197, 351.67273, 50.87703, 0.04883, 1.0, 0.49219
0.198, 351.7236, 50.87703, 0.03516, 1.0, 0.49213
0.199, 351.77325, 50.97929, 0.06152, 1.0, 0.49219
0.2, 351.81973, 51.13269, 0.03809, 1.0, 0.49219
0.201, 351.87158, 51.03043, 0.06543, 1.0, 0.49219
0.202, 351.92154, 50.92816, 0.11328, 1.0, 0.49225
0.203, 351.9718, 50.77476, 0.14258, 1.0, 0.49213
0.204, 352.02206, 50.5191, 0.12793, 1.0, 0.49219
0.205, 352.07672, 50.41684, 0.10449, 1.0, 0.49219
0.206, 352.13138, 50.6725, 0.13477, 1.0, 0.49219
0.207, 352.17474, 50.77476, 0.06543, 1.0, 0.49225
0.208, 352.22595, 50.92816, 0.03223, 1.0, 0.49225
0.209, 352.27841, 51.23496, 0.0498, 1.0, 0.49219
0.21, 352.32648, 51.13269, 0.05078, 1.0, 0.49219
0.211, 352.37863, 50.8259, 0.07812, 1.0, 0.49213
0.212, 352.42764, 50.6725, 0.0918, 1.0, 0.49219
0.213, 352.47916, 50.3657, 0.16016, 1.0, 0.49225
0.214, 352.52847, 50.3657, 0.12988, 1.0, 0.49219
0.215, 352.58063, 50.5191, 0.11133, 1.0, 0.49225
0.216, 352.63153, 50.72363, 0.13574, 1.0, 0.49219
0.217, 352.68369, 50.8259, 0.08789, 1.0, 0.49225
0.218, 352.733, 50.72363, 0.05957, 1.0, 0.49219
0.2191, 352.80182, 50.8259, 0.05469, 1.0, 0.49213
0.2205, 352.88193, 50.77476, 0.04883, 1.0, 0.49219
0.2211, 352.92651, 50.97929, 0.06641, 1.0, 0.49219
0.222, 352.94662, 50.92816, 0.08105, 1.0, 0.49219
0.2231, 353.017, 50.6725, 0.14844, 1.0, 0.49219
0.224, 353.0676, 50.3657, 0.13477, 1.0, 0.49225
0.2253, 353.11691, 50.26344, 0.11035, 1.0, 0.49219
0.2261, 353.18005, 50.46797, 0.13477, 1.0, 0.49219
0.227, 353.19702, 50.5191, 0.09473, 1.0, 0.49213
0.228, 353.24164, 50.87703, 0.04688, 1.0, 0.49219
0.229, 353.30038, 51.03043, 0.03418, 1.0, 0.49219
0.23, 353.35754, 51.08156, 0.06445, 1.0, 0.49219
0.231, 353.4072, 50.97929, 0.05664, 1.0, 0.49225
0.232, 353.44962, 50.62137, 0.07715, 1.0, 0.49219
0.233, 353.50238, 50.3657, 0.12891, 1.0, 0.49219
0.234, 353.55673, 50.26344, 0.13184, 1.0, 0.49219
0.235, 353.60355, 50.41684, 0.13477, 1.0, 0.49219
0.236, 353.66104, 50.6725, 0.11523, 1.0, 0.49219
0.237, 353.69904, 50.77476, 0.1377, 1.0, 0.49219
0.238, 353.75497, 50.72363, 0.06055, 1.0, 0.49219
0.239, 353.80051, 50.62137, 0.03711, 1.0, 0.49219
0.24, 353.84985, 50.57023, 0.05371, 1.0, 0.49213
0.241, 353.89917, 50.6725, 0.0459, 1.0, 0.49219
0.242, 353.94879, 50.8259, 0.07617, 1.0, 0.49213
0.243, 354.00064, 50.72363, 0.09863, 1.0, 0.49213
0.244, 354.04932, 50.5191, 0.17676, 1.0, 0.49213
0.245, 354.10117, 50.31457, 0.13574, 1.0, 0.49213
0.246, 354.15018, 50.26344, 0.12109, 1.0, 0.49213
0.247, 354.20203, 50.3657, 0.13867, 1.0, 0.49213
0.248, 354.25165, 50.57023, 0.07715, 1.0, 0.49213
0.249, 354.30411, 50.77476, 0.04688, 1.0, 0.49213
0.25, 354.35501, 50.92816, 0.04102, 1.0, 0.49213
0.251, 354.40683, 50.87703, 0.06055, 1.0, 0.49207
0.252, 354.4722, 50.62137, 0.08105, 1.0, 0.49213
0.253, 354.5275, 50.2123, 0.10352, 1.0, 0.49207
0.254, 354.56519, 50.16117, 0.16406, 1.0, 0.49213
0.255, 354.62958, 50.2123, 0.13379, 1.0, 0.49213
0.256, 354.67923, 50.62137, 0.11035, 1.0, 0.49207
0.257, 354.72131, 50.77476, 0.12598, 1.0, 0.49207
0.2583, 354.7832, 50.6725, 0.07812, 1.0, 0.49213
0.2594, 354.85547, 50.72363, 0.04004, 1.0, 0.49207
0.2602, 354.89975, 50.62137, 0.0625, 1.0, 0.49207
0.261, 354.92773, 50.57023, 0.06641, 1.0, 0.49207
0.262, 354.96323, 50.6725, 0.04297, 1.0, 0.492
0.263, 355.0141, 50.8259, 0.07031, 1.0, 0.492
0.264, 355.0672, 50.72363, 0.11914, 1.0, 0.49207
0.265, 355.11621, 50.46797, 0.14355, 1.0, 0.49207
0.266, 355.16397, 50.31457, 0.1377, 1.0, 0.492
0.267, 355.21454, 50.26344, 0.1123, 1.0, 0.492
0.268, 355.26389, 50.41684, 0.14258, 1.0, 0.49207
0.269, 355.31601, 50.72363, 0.07031, 1.0, 0.49207
0.27, 355.36975, 50.8259, 0.04102, 1.0, 0.49207
0.271, 355.42062, 50.97929, 0.06055, 1.0, 0.492
0.272, 355.47028, 50.87703, 0.04785, 1.0, 0.492
0.273, 355.52054, 50.77476, 0.07129, 1.0, 0.492
0.274, 355.56985, 50.62137, 0.08594, 1.0, 0.492
0.275, 355.62012, 50.3657, 0.16016, 1.0, 0.492
0.276, 355.66946, 50.3657, 0.11914, 1.0, 0.492
0.277, 355.72159, 50.5191, 0.11426, 1.0, 0.49194
0.278, 355.77344, 50.77476, 0.1377, 1.0, 0.492
0.279, 355.82434, 50.8259, 0.09277, 1.0, 0.492
0.28, 355.87366, 50.62137, 0.05566, 1.0, 0.49194
0.281, 355.92456, 50.6725, 0.04199, 1.0, 0.492
0.282, 355.97668, 50.8259, 0.06738, 1.0, 0.492
0.283, 356.02789, 50.87703, 0.05176, 1.0, 0.49194
0.284, 356.07724, 50.87703, 0.07031, 1.0, 0.492
0.285, 356.13785, 50.72363, 0.1582, 1.0, 0.492
0.2866, 356.22363, 50.41684, 0.14258, 1.0, 0.492
0.2873, 356.27673, 50.5191, 0.11133, 1.0, 0.49194
0.288, 356.29965, 50.5191, 0.13281, 1.0, 0.492
0.289, 356.34961, 50.72363, 0.08594, 1.0, 0.492
0.2901, 356.39923, 50.97929, 0.05273, 1.0, 0.49207
0.2915, 356.47214, 50.97929, 0.05957, 1.0, 0.492
0.292, 356.52649, 50.97929, 0.04004, 1.0, 0.49194
0.293, 356.53683, 50.87703, 0.04297, 1.0, 0.492
0.294, 356.58963, 50.6725, 0.07227, 1.0, 0.492
0.295, 356.63739, 50.57023, 0.12695, 1.0, 0.49194
0.296, 356.69046, 50.31457, 0.13281, 1.0, 0.492
0.297, 356.73727, 50.3657, 0.13574, 1.0, 0.49194
0.298, 356.78723, 50.72363, 0.10352, 1.0, 0.492
0.299, 356.83905, 50.8259, 0.14648, 1.0, 0.492
0.3, 356.88995, 50.87703, 0.06934, 1.0, 0.492
0.301, 356.93927, 50.77476, 0.04492, 1.0, 0.49194
0.302, 356.98923, 50.72363, 0.06152, 1.0, 0.49194
0.303, 357.04294, 50.92816, 0.04102, 1.0, 0.49194
0.304, 357.09604, 51.13269, 0.06348, 1.0, 0.49194
0.305, 357.14566, 50.92816, 0.0918, 1.0, 0.492
0.306, 357.19342, 50.57023, 0.15723, 1.0, 0.492
0.307, 357.24402, 50.41684, 0.13281, 1.0, 0.492
0.308, 357.293, 50.41684, 0.11719, 1.0, 0.492
0.309, 357.34515, 50.5191, 0.1377, 1.0, 0.49194
0.31, 357.39481, 50.6725, 0.07812, 1.0, 0.492
0.311, 357.44727, 50.77476, 0.05566, 1.0, 0.49207
0.312, 357.49847, 51.18383, 0.04297, 1.0, 0.492
0.313, 357.5481, 51.13269, 0.0625, 1.0, 0.492
0.314, 357.60025, 50.92816, 0.05762, 1.0, 0.492
0.315, 357.65179, 50.77476, 0.08203, 1.0, 0.49194
0.316, 357.70236, 50.5191, 0.15039, 1.0, 0.49194
0.317, 357.75201, 50.5191, 0.125, 1.0, 0.49207
0.318, 357.80917, 50.6725, 0.11621, 1.0, 0.492
0.3192, 357.89337, 51.03043, 0.13867, 1.0, 0.492
0.32, 357.94049, 50.72363, 0.06543, 1.0, 0.492
0.321, 357.96594, 50.92816, 0.05859, 1.0, 0.49194
0.322, 358.02093, 50.92816, 0.04297, 1.0, 0.492
0.323, 358.07181, 51.08156, 0.05664, 1.0, 0.492
0.3242, 358.13684, 51.13269, 0.0625, 1.0, 0.492
0.325, 358.17767, 50.97929, 0.07812, 1.0, 0.49207
0.326, 358.2157, 50.92816, 0.12988, 1.0, 0.492
0.327, 358.26596, 50.62137, 0.13379, 1.0, 0.49207
0.328, 358.31277, 50.46797, 0.13184, 1.0, 0.492
0.329, 358.36209, 50.5191, 0.11426, 1.0, 0.492
0.33, 358.41675, 50.6725, 0.12793, 1.0, 0.492
0.331, 358.47079, 50.92816, 0.05566, 1.0, 0.49207
0.332, 358.52325, 51.13269, 0.03027, 1.0, 0.492
0.333, 358.57291, 51.18383, 0.06152, 1.0, 0.492
0.334, 358.61877, 50.97929, 0.04004, 1.0, 0.49207
0.335, 358.66779, 50.77476, 0.07129, 1.0, 0.492
0.336, 358.71835, 50.62137, 0.09277, 1.0, 0.49207
0.337, 358.76987, 50.3657, 0.15527, 1.0, 0.492
0.338, 358.82077, 50.3657, 0.13184, 1.0, 0.492
0.339, 358.87292, 50.62137, 0.1123, 1.0, 0.49207
0.34, 358.92255, 50.77476, 0.15527, 1.0, 0.49207
0.341, 358.9722, 50.8259, 0.07227, 1.0, 0.49207
0.342, 359.02277, 50.87703, 0.04785, 1.0, 0.492
0.343, 359.07492, 50.87703, 0.04785, 1.0, 0.49207
0.344, 359.12457, 50.77476, 0.05469, 1.0, 0.49207
0.345, 359.17545, 50.8259, 0.05664, 1.0, 0.49207
0.346, 359.2251, 50.87703, 0.07422, 1.0, 0.49207
0.347, 359.27661, 50.62137, 0.15039, 1.0, 0.49207
0.348, 359.32687, 50.46797, 0.13184, 1.0, 0.49207
0.349, 359.37839, 50.31457, 0.13184, 1.0, 0.492
0.35, 359.42804, 50.46797, 0.12695, 1.0, 0.49207
0.351, 359.48145, 50.62137, 0.08984, 1.0, 0.49207
0.352, 359.54019, 50.87703, 0.05176, 1.0, 0.49207
0.3535, 359.62817, 51.08156, 0.07617, 1.0, 0.49207
0.3543, 359.6778, 50.92816, 0.04883, 1.0, 0.49213
0.3552, 359.71518, 50.87703, 0.08203, 1.0, 0.49207
0.3564, 359.75915, 50.46797, 0.09473, 1.0, 0.49213
0.359, 359.81949, 50.31457, 0.15723, 1.0, 0.49213
0.3594, 359.94421, 50.6725, 0.11328, 1.0, 0.49207
0.3596, 359.95959, 50.72363, 0.1377, 1.0, 0.49213
0.36, 359.96713, 50.72363, 0.14746, 1.0, 0.49213
0.361, 359.98724, 50.77476, 0.13477, 1.0, 0.49213
0.362, 360.0419, 50.8259, 0.05566, 1.0, 0.49213
0.363, 360.08997, 50.72363, 0.04297, 1.0, 0.49207
0.364, 360.15219, 50.77476, 0.06152, 1.0, 0.49207
0.365, 360.19049, 50.72363, 0.03223, 1.0, 0.49207
0.366, 360.24234, 50.8259, 0.07227, 1.0, 0.49207
0.367, 360.29199, 50.87703, 0.09766, 1.0, 0.49213
0.368, 360.34067, 50.5191, 0.1543, 1.0, 0.49207
0.369, 360.39127, 50.31457, 0.13281, 1.0, 0.49213
0.37, 360.44025, 50.26344, 0.1123, 1.0, 0.49213
0.371, 360.4924, 50.46797, 0.14453, 1.0, 0.49207
0.372, 360.54614, 50.62137, 0.06836, 1.0, 0.49213
0.373, 360.59576, 50.8259, 0.04492, 1.0, 0.49207
0.374, 360.64572, 51.08156, 0.04102, 1.0, 0.49207
0.375, 360.69504, 51.03043, 0.06445, 1.0, 0.49207
0.376, 360.69504, 51.03043, 0.06445, 1.0, 0.49207
0.377, 360.79715, 50.5191, 0.08203, 1.0, 0.49213
0.378, 360.84741, 50.41684, 0.15527, 1.0, 0.49213
0.379, 360.89673, 50.41684, 0.12793, 1.0, 0.49213
0.38, 360.94888, 50.5191, 0.12207, 1.0, 0.49213
0.381, 360.99884, 50.77476, 0.125, 1.0, 0.49213
0.382, 361.05194, 50.72363, 0.10254, 1.0, 0.49213
0.383, 361.10406, 50.72363, 0.05664, 1.0, 0.49213
0.384, 361.15341, 50.72363, 0.0459, 1.0, 0.49213
0.385, 361.21057, 50.72363, 0.05762, 1.0, 0.49213
0.3866, 361.28064, 51.03043, 0.06738, 1.0, 0.49213
0.3877, 361.36264, 50.77476, 0.14453, 1.0, 0.49213
0.3882, 361.40063, 50.6725, 0.14551, 1.0, 0.49213
0.389, 361.42328, 50.46797, 0.13477, 1.0, 0.49213
0.3904, 361.504, 50.41684, 0.11426, 1.0, 0.49213
0.3918, 361.56494, 50.57023, 0.11133, 1.0, 0.49213
0.3923, 361.61114, 50.77476, 0.05371, 1.0, 0.49213
0.393, 361.62497, 50.77476, 0.04883, 1.0, 0.49213
0.394, 361.66077, 50.8259, 0.0332, 1.0, 0.49213
0.395, 361.71417, 50.97929, 0.06348, 1.0, 0.49213
0.396, 361.77386, 50.8259, 0.0459, 1.0, 0.492
0.397, 361.82004, 50.62137, 0.07422, 1.0, 0.49213
0.398, 361.86435, 50.46797, 0.10742, 1.0, 0.49213
0.399, 361.91837, 50.31457, 0.14941, 1.0, 0.49207
0.4, 361.96518, 50.3657, 0.12695, 1.0, 0.49213
0.401, 362.0123, 50.57023, 0.10352, 1.0, 0.49213
0.402, 362.06445, 50.77476, 0.15234, 1.0, 0.49213
0.403, 362.1138, 50.72363, 0.0791, 1.0, 0.49213
